Lat(D)	Lon(D)	H(m)	BS(dB)
25.496	122.450	85.43	11.55
25.499	122.451	85.32	11.64
25.501	122.453	85.44	11.58
25.504	122.454	85.48	11.66
25.506	122.455	85.56	11.63
25.508	122.456	85.42	11.70
25.511	122.457	85.28	11.51
25.513	122.458	85.49	11.66
25.516	122.459	85.57	11.74
25.518	122.460	85.46	11.77
25.520	122.462	85.49	11.68
25.523	122.463	85.58	11.64
25.525	122.464	85.70	11.64
25.527	122.465	85.70	11.48
25.530	122.466	85.55	11.64
25.532	122.467	85.46	11.65
25.535	122.468	85.56	11.67
25.537	122.469	85.53	11.46
