Lat(D)	Lon(D)	H(m)	BS(dB)
25.497	233.278	20.27	12.38
25.499	233.279	20.16	12.38
25.502	233.280	20.28	12.34
25.504	233.281	20.22	12.25
25.507	233.282	20.16	12.34
25.509	233.283	20.21	12.27
25.511	233.284	20.21	12.53
25.514	233.286	20.11	12.33
25.516	233.287	20.21	12.29
25.519	233.288	20.30	12.29
25.521	233.289	20.26	12.37
25.523	233.290	20.37	12.30
25.526	233.291	20.28	12.47
25.528	233.292	20.28	12.36
25.531	233.293	20.18	12.36
25.533	233.294	20.25	12.31
25.535	233.296	20.06	12.54
25.538	233.297	20.15	12.43
