Lat(D)	Lon(D)	H(m)	BS(dB)
25.498	103.977	2064.78	25.79
25.500	103.979	2065.13	26.81
25.503	103.980	2064.73	18.74
25.505	103.981	2064.51	11.27
25.508	103.982	2102.59	5.67
25.510	103.983	2108.28	7.04
25.512	103.984	2113.66	5.09
25.515	103.985	2118.26	5.64
25.517	103.986	2123.88	4.64
25.520	103.988	2129.36	3.52
25.522	103.989	2135.32	3.65
25.524	103.990	2141.43	4.62
25.527	103.991	2145.72	6.68
25.529	103.992	2145.73	7.68
25.532	103.993	2145.58	7.97
25.534	103.994	2132.33	15.47
25.536	103.995	2133.24	17.62
