Lat(D)	Lon(D)	H(m)	BS(dB)
26.533	309.961	26.12	13.85
26.530	309.962	26.13	13.80
26.528	309.964	26.11	13.82
26.525	309.965	26.17	13.79
26.523	309.966	26.11	13.95
26.521	309.967	26.16	13.83
26.518	309.968	26.17	13.86
26.516	309.969	26.22	13.85
26.513	309.971	26.27	13.85
26.511	309.972	26.23	13.91
26.509	309.973	26.16	13.92
26.506	309.974	26.28	13.73
26.504	309.975	26.26	13.91
26.501	309.976	26.17	13.76
26.499	309.977	26.21	14.00
26.497	309.979	26.19	13.92
26.494	309.980	26.12	13.98
26.492	309.981	26.21	13.81
26.489	309.982	26.29	13.83
26.487	309.983	26.18	14.05
26.485	309.984	26.10	13.77
26.482	309.985	26.15	13.91
26.480	309.987	26.20	13.86
26.477	309.988	26.14	13.85
26.475	309.989	26.21	14.02
26.473	309.990	26.25	14.00
26.470	309.991	26.23	14.05
26.468	309.992	26.23	13.92
26.465	309.993	26.24	13.98
26.463	309.995	26.20	13.94
26.461	309.996	26.23	14.04
26.458	309.997	26.18	14.01
26.456	309.998	26.22	13.95
