Lat(D)	Lon(D)	H(m)	BS(dB)
26.532	190.667	52.66	12.63
26.529	190.668	52.67	12.68
26.527	190.669	52.68	12.70
26.524	190.670	52.68	12.59
26.522	190.672	52.72	12.58
26.520	190.673	52.73	12.79
26.517	190.674	52.68	12.69
26.515	190.675	52.73	12.55
26.513	190.676	52.64	12.77
26.510	190.677	52.74	12.55
26.508	190.678	52.77	12.68
26.505	190.680	52.69	12.66
26.503	190.681	52.72	12.62
26.501	190.682	52.60	12.58
26.498	190.683	52.69	12.65
26.496	190.684	52.72	12.67
26.493	190.685	52.82	12.56
26.491	190.686	52.68	12.63
26.489	190.688	52.69	12.56
26.486	190.689	52.77	12.75
26.484	190.690	52.71	12.53
26.481	190.691	52.61	12.53
26.479	190.692	52.66	12.61
26.477	190.693	52.68	12.59
26.474	190.695	52.70	12.51
26.472	190.696	52.78	12.62
26.469	190.697	52.77	12.50
26.467	190.698	52.80	12.60
26.465	190.699	52.84	12.47
26.462	190.700	52.77	12.47
26.460	190.701	52.69	12.49
26.457	190.703	52.82	12.46
26.455	190.704	52.78	12.51
