Lat(D)	Lon(D)	H(m)	BS(dB)
26.749	93.612	136.33	17.48
26.746	93.614	137.77	23.75
26.744	93.615	135.17	24.22
26.741	93.616	136.91	17.64
26.739	93.617	138.10	17.50
26.736	93.618	136.53	26.35
26.734	93.619	137.51	27.07
26.732	93.621	138.01	21.33
26.727	93.623	137.18	22.38
26.724	93.624	128.33	18.85
26.722	93.625	128.47	23.28
26.719	93.626	133.84	22.91
26.717	93.628	138.17	22.72
26.715	93.629	138.91	11.91
26.712	93.630	137.82	27.48
26.710	93.631	138.61	24.87
26.707	93.632	140.52	3.69
26.702	93.635	135.80	3.50
