Lat(D)	Lon(D)	H(m)	BS(dB)
26.750	93.609	74.18	47.58
26.747	93.610	74.14	49.57
26.745	93.611	74.27	50.39
26.743	93.613	74.42	47.15
26.740	93.614	74.20	48.27
26.738	93.615	74.27	50.93
26.735	93.616	74.39	54.40
26.733	93.617	74.46	50.98
26.730	93.618	74.62	55.08
26.728	93.620	74.47	56.93
26.726	93.621	74.43	54.88
26.723	93.622	74.49	56.40
26.721	93.623	74.56	56.86
26.718	93.624	74.64	57.48
26.716	93.625	74.78	55.67
26.713	93.627	74.76	55.74
26.711	93.628	74.54	50.77
26.709	93.629	74.60	49.06
26.706	93.630	74.60	43.10
26.704	93.631	74.60	39.20
26.701	93.632	74.61	39.88
