Lat(D)	Lon(D)	H(m)	BS(dB)
26.748	93.611	76.88	47.96
26.745	93.612	76.89	48.59
26.743	93.613	76.97	47.58
26.740	93.615	77.03	45.70
26.738	93.616	77.16	47.66
26.736	93.617	77.24	47.28
26.733	93.618	77.20	47.08
26.731	93.619	77.21	44.69
26.728	93.620	77.12	42.92
26.726	93.622	77.15	43.30
26.723	93.623	77.14	43.90
26.721	93.624	77.15	44.80
26.719	93.625	77.26	45.13
26.716	93.626	77.33	45.19
26.714	93.627	77.36	51.84
26.711	93.629	77.40	51.83
26.709	93.630	77.61	49.30
26.706	93.631	77.58	49.64
26.704	93.632	77.55	52.50
26.702	93.633	77.53	55.10
