Lat(D)	Lon(D)	H(m)	BS(dB)
26.750	93.607	73.56	45.41
26.747	93.608	73.42	48.54
26.745	93.609	73.39	50.65
26.743	93.610	73.36	51.65
26.740	93.612	73.34	53.65
26.738	93.613	73.32	51.78
26.735	93.614	73.30	52.57
26.733	93.615	73.29	55.76
26.730	93.616	73.32	49.75
26.728	93.617	73.77	46.04
26.726	93.619	73.31	46.81
26.723	93.620	73.65	52.25
26.721	93.621	73.57	48.04
26.718	93.622	74.00	45.03
26.716	93.623	74.09	38.22
26.713	93.624	74.13	41.64
26.711	93.626	73.82	47.46
26.709	93.627	73.74	47.55
26.706	93.628	73.70	45.41
26.704	93.629	75.06	39.80
26.701	93.630	75.15	44.02
