Lat(D)	Lon(D)	H(m)	BS(dB)
26.749	93.609	74.05	47.03
26.747	93.610	74.02	50.14
26.744	93.611	74.00	49.87
26.742	93.612	74.01	47.60
26.739	93.613	73.96	50.81
26.737	93.615	73.94	53.42
26.734	93.616	73.94	54.17
26.732	93.617	73.91	55.04
26.730	93.618	73.91	46.65
26.727	93.619	73.91	46.56
26.725	93.620	74.18	46.57
26.722	93.622	74.07	50.12
26.720	93.623	74.20	44.73
26.717	93.624	74.19	46.55
26.715	93.625	74.20	43.29
26.713	93.626	74.29	42.57
26.710	93.627	74.33	47.59
26.708	93.629	74.29	50.58
26.705	93.630	74.26	51.27
26.703	93.631	74.29	41.71
26.700	93.632	75.11	40.82
