Lat(D)	Lon(D)	H(m)	BS(dB)
26.749	93.613	69.21	33.51
26.746	93.614	69.46	37.61
26.744	93.616	69.60	38.75
26.741	93.617	69.62	41.71
26.739	93.618	70.54	43.31
26.737	93.619	70.08	46.41
26.734	93.620	69.62	49.82
26.732	93.621	69.72	44.92
26.729	93.623	69.52	39.85
26.727	93.624	70.28	37.09
26.724	93.625	70.70	40.21
26.722	93.626	70.80	33.94
26.720	93.627	70.11	30.57
26.717	93.628	70.23	29.41
26.715	93.630	70.08	28.69
26.712	93.631	69.83	28.80
26.710	93.632	70.38	28.05
26.707	93.633	70.89	26.46
26.705	93.634	71.17	29.87
26.703	93.635	71.32	32.27
26.700	93.637	71.63	34.72
