Lat(D)	Lon(D)	H(m)	BS(dB)
26.748	93.608	75.69	47.30
26.746	93.609	75.65	47.89
26.743	93.611	75.64	48.38
26.741	93.612	75.60	49.80
26.738	93.613	75.59	48.91
26.736	93.614	75.57	50.08
26.733	93.615	75.53	53.33
26.731	93.616	75.53	52.66
26.729	93.618	75.69	51.51
26.726	93.619	75.79	48.81
26.724	93.620	75.86	49.87
26.721	93.621	75.91	50.62
26.719	93.622	75.83	49.12
26.716	93.623	76.19	49.77
26.714	93.625	76.18	51.40
26.712	93.626	75.87	54.59
26.709	93.627	75.91	52.94
26.707	93.628	75.94	47.29
26.704	93.629	75.95	46.16
26.702	93.630	75.86	51.97
