Lat(D)	Lon(D)	H(m)	BS(dB)
26.749	93.608	74.56	46.71
26.747	93.609	74.55	51.49
26.744	93.610	74.67	51.78
26.742	93.611	74.55	49.02
26.740	93.612	74.56	47.90
26.737	93.614	74.59	53.68
26.735	93.615	74.56	52.38
26.732	93.616	74.75	48.17
26.730	93.617	75.17	46.11
26.727	93.618	74.96	43.78
26.725	93.619	74.86	45.27
26.723	93.621	74.85	44.89
26.720	93.622	74.82	48.67
26.718	93.623	74.91	45.99
26.715	93.624	75.01	46.47
26.713	93.625	74.87	45.75
26.710	93.626	75.25	48.99
26.708	93.628	75.33	50.78
26.706	93.629	75.32	41.70
26.703	93.630	75.29	39.46
26.701	93.631	75.34	44.86
