Lat(D)	Lon(D)	H(m)	BS(dB)
26.749	93.607	69.54	33.22
26.746	93.609	69.81	35.54
26.744	93.610	70.25	38.97
26.741	93.611	70.53	41.96
26.739	93.612	70.64	44.81
26.736	93.613	70.62	47.68
26.734	93.614	70.59	49.92
26.732	93.616	70.56	49.66
26.729	93.617	70.55	43.84
26.727	93.618	70.46	39.58
26.724	93.619	70.08	40.41
26.722	93.620	70.01	35.43
26.719	93.621	69.70	33.77
26.717	93.623	69.20	31.40
26.715	93.624	69.28	30.33
26.712	93.625	68.41	29.64
26.710	93.626	71.40	27.34
26.707	93.627	71.52	27.68
26.705	93.628	74.45	27.99
26.702	93.630	74.69	28.99
