Lat(D)	Lon(D)	H(m)	BS(dB)
26.749	93.608	74.97	50.60
26.747	93.610	75.33	52.09
26.744	93.611	75.37	49.93
26.742	93.612	75.35	48.74
26.739	93.613	75.31	50.02
26.737	93.614	75.30	52.12
26.735	93.615	75.27	52.07
26.732	93.617	75.22	54.71
26.730	93.618	75.20	55.74
26.727	93.619	75.17	55.28
26.725	93.620	75.16	57.76
26.722	93.621	75.14	51.65
26.720	93.622	75.18	50.44
26.718	93.624	75.49	55.71
26.715	93.625	75.57	49.35
26.713	93.626	75.61	55.62
26.710	93.627	75.68	54.35
26.708	93.628	75.63	47.95
26.705	93.629	75.62	41.80
26.703	93.631	75.57	43.83
26.701	93.632	75.58	45.86
