Lat(D)	Lon(D)	H(m)	BS(dB)
26.748	93.620	75.87	45.88
26.746	93.621	75.79	41.29
26.743	93.622	75.73	40.90
26.741	93.624	75.38	42.51
26.739	93.625	75.31	43.73
26.736	93.626	75.28	42.96
26.734	93.627	75.28	48.37
26.731	93.628	75.24	47.91
26.729	93.629	75.21	48.10
26.726	93.631	75.27	46.05
26.724	93.632	75.67	46.84
26.722	93.633	75.70	41.68
26.719	93.634	75.45	43.11
26.717	93.635	75.50	40.17
26.714	93.636	75.63	46.49
26.712	93.638	75.58	47.56
26.709	93.639	75.71	48.43
26.707	93.640	75.64	50.69
26.705	93.641	76.94	39.88
26.702	93.642	75.62	50.99
