Lat(D)	Lon(D)	H(m)	BS(dB)
26.749	93.614	73.54	42.01
26.747	93.616	73.66	45.03
26.744	93.617	73.78	48.26
26.742	93.618	73.95	49.98
26.739	93.619	73.88	46.85
26.737	93.620	73.82	47.37
26.734	93.621	73.87	50.29
26.732	93.623	73.99	49.55
26.730	93.624	73.93	51.52
26.727	93.625	73.98	52.48
26.725	93.626	74.02	53.54
26.722	93.627	74.07	49.74
26.720	93.628	74.08	50.02
26.717	93.630	74.07	49.06
26.715	93.631	74.13	51.08
26.712	93.632	74.39	50.50
26.710	93.633	74.24	52.78
26.708	93.634	74.21	54.12
26.705	93.635	74.18	51.17
26.703	93.637	74.27	54.73
26.700	93.638	74.59	41.64
