Lat(D)	Lon(D)	H(m)	BS(dB)
26.748	93.617	69.91	36.64
26.746	93.618	70.03	39.59
26.743	93.619	70.00	42.60
26.741	93.620	69.99	45.27
26.739	93.621	70.38	46.36
26.736	93.623	70.12	46.09
26.734	93.624	69.96	40.44
26.731	93.625	69.93	42.21
26.729	93.626	69.83	39.74
26.726	93.627	71.07	37.54
26.724	93.628	71.16	41.90
26.722	93.630	70.74	36.44
26.719	93.631	70.88	36.26
26.717	93.632	70.90	37.76
26.714	93.633	71.71	34.43
26.712	93.634	71.98	39.41
26.709	93.635	71.63	43.20
26.707	93.637	71.61	31.74
26.705	93.638	71.68	32.93
26.702	93.639	72.11	43.52
